x, y, theta, stamp, 
0.006588546097477676, 0.028006255080267658, -0.025451991112448297, 125325000000, 
0.006588550622602077, 0.02800625427977626, -0.025451987814924366, 125359000000, 
0.0077420676829704285, 0.027977087997867987, -0.02498696825579611, 125393000000, 
0.010049146789968119, 0.027920759044634858, -0.023695099063280625, 125427000000, 
0.01351200520884782, 0.027840438369647516, -0.022721211889305506, 125461000000, 
0.018130808515543658, 0.027736839934276447, -0.02212088185651017, 125495000000, 
0.023904403849452405, 0.02761141279838405, -0.021253515468258107, 125529000000, 
0.03026165044150241, 0.027487139975894286, -0.01642939849893203, 125563000000, 
0.03716189969260244, 0.02741887025768605, -0.0009456378301216979, 125597000000, 
0.04459383142677694, 0.027493948671093046, 0.02258859178140503, 125631000000, 
0.05202103542150743, 0.02775144009316584, 0.046484054449888096, 125665000000, 
0.059448770919454254, 0.028171096647471052, 0.0663450477489656, 125699000000, 
0.0668671845154845, 0.028736259964297756, 0.08637898836146721, 125733000000, 
0.07427076210117362, 0.02945421396279192, 0.10743048929367839, 125767000000, 
0.08166002518250193, 0.030325697818116348, 0.12747726049404562, 125801000000, 
0.08903390528137539, 0.03133992968744082, 0.14624533895020198, 125835000000, 
0.09638740600960378, 0.03249300056564454, 0.16523204386609674, 125869000000, 
0.10371885582579594, 0.03378449808780809, 0.1838575292990034, 125903000000, 
0.11102695004981607, 0.03521042249241806, 0.2018456744559382, 125937000000, 
0.11831016267683658, 0.03676520612637194, 0.21927308201014076, 125971000000, 
0.12556576755338136, 0.03844651127698509, 0.23661005100159582, 126005000000, 
0.13279300458036417, 0.040251419212683465, 0.25338909443380786, 126039000000, 
0.1399903163287081, 0.04217626128584758, 0.2698056407338227, 126073000000, 
0.14715674287333752, 0.044217252882146924, 0.28577762280880553, 126107000000, 
0.1542905775289505, 0.04637195089330035, 0.30154028087376494, 126141000000, 
0.16139141233998455, 0.04863711731549349, 0.3167999823217394, 126175000000, 
0.16845794786016277, 0.05100970185500037, 0.33180475163419654, 126209000000, 
0.17548974194907782, 0.05348662091528387, 0.34638920006866314, 126243000000, 
0.18248565442686202, 0.056065332843685166, 0.36074809227494503, 126277000000, 
0.18944554635223357, 0.05874284562776444, 0.37467105355120134, 126311000000, 
0.19636847190887888, 0.06151651971469007, 0.3883762899216629, 126345000000, 
0.2032543550245681, 0.06438358399282368, 0.40168672020556984, 126379000000, 
0.21010242368472198, 0.06734161345924473, 0.41478721855096784, 126413000000, 
0.21691268302994832, 0.07038804994195214, 0.42749556247980613, 126447000000, 
0.22368411697701696, 0.07352037898120406, 0.44000253848546783, 126481000000, 
0.2304160862846532, 0.07673519549713141, 0.4521550500057774, 126515000000, 
0.2371082154136923, 0.0800311761968318, 0.4641231460882369, 126549000000, 
0.24376115550256655, 0.08340509468010619, 0.4754619975070667, 126583000000, 
0.25037586523388744, 0.086852403586431, 0.48640363563412253, 126617000000, 
0.2569501848809213, 0.09037204886269216, 0.4977113551766019, 126651000000, 
0.2634833629465601, 0.09396590440234473, 0.5089003220048404, 126685000000, 
0.2699777186880867, 0.09763077934759082, 0.5193960026329751, 126719000000, 
0.27643348209292135, 0.10136338214166368, 0.5297956065759675, 126753000000, 
0.28285060820516694, 0.10516300369468257, 0.5400761005618714, 126787000000, 
0.2892292554911517, 0.1090284186028534, 0.5501136641909072, 126821000000, 
0.29557034698499113, 0.11295702097019832, 0.5597899291291998, 126855000000, 
0.3018735714460039, 0.1169469849645489, 0.5693871483341235, 126889000000, 
0.30813929237298204, 0.12099699428186993, 0.5787329403890881, 126923000000, 
0.31436766531719057, 0.12510538818624284, 0.5878953400111028, 126957000000, 
0.3205592732847305, 0.12927030364969636, 0.5967990483765842, 126991000000, 
0.3267140906963615, 0.13349032757503007, 0.6055936234044292, 127025000000, 
0.33283298937355055, 0.1377642026524519, 0.6141382094282637, 127059000000, 
0.33890113389140447, 0.14207983506628946, 0.6225438665408247, 127093000000, 
0.34493392037944237, 0.14644607239577043, 0.6307185052642467, 127127000000, 
0.3508536169662608, 0.15080427270679672, 0.6387756561384724, 127161000000, 
0.35673911371729533, 0.15520975644115098, 0.646604749464829, 127195000000, 
0.3625140087828069, 0.1596029698554127, 0.6543152720587593, 127229000000, 
0.3682559571093162, 0.16404035092721925, 0.6618135159098794, 127263000000, 
0.37389015029137096, 0.16846187844558214, 0.6692004976294332, 127297000000, 
0.37949263060442867, 0.1729247057765769, 0.6763807669555318, 127331000000, 
0.38499019437334064, 0.17736838418731496, 0.6834544210333855, 127365000000, 
0.3904570859326748, 0.18185064532841916, 0.6903266441024523, 127399000000, 
0.39582124849719336, 0.18631027985677193, 0.6970879630041343, 127433000000, 
0.4011553433867478, 0.19080517392047427, 0.70366520085204, 127467000000, 
0.4063887095979405, 0.19527413197065505, 0.7101516040356003, 127501000000, 
0.4115927329502528, 0.19977588774539037, 0.7164573502066366, 127535000000, 
0.416698665685299, 0.20424916385842787, 0.7226681749950539, 127569000000, 
0.4217763890229391, 0.20875307936202506, 0.7287055783398038, 127603000000, 
0.4267591352927017, 0.21322618240718608, 0.7346584780082454, 127637000000, 
0.43171448645292143, 0.21772843240842582, 0.7404609744753365, 127671000000, 
0.43657849123666664, 0.22219837720759394, 0.7461756765403531, 127705000000, 
0.4414171090747208, 0.22669612091221775, 0.7517251382785647, 127739000000, 
0.44616681291912214, 0.23116040651824482, 0.7571856624099743, 127773000000, 
0.4508930069687142, 0.23565070809886046, 0.7624826097493769, 127807000000, 
0.4555329702667544, 0.24010580373611265, 0.7677036316480573, 127841000000, 
0.4601504572470331, 0.24458522201423535, 0.7727863933492243, 127875000000, 
0.46468406644165444, 0.24902794064825473, 0.777791632405489, 127909000000, 
0.46919622854522175, 0.25349344720812617, 0.7826561181307895, 127943000000, 
0.4736268394476164, 0.2579208575286433, 0.7874507151405993, 127977000000, 
0.47803696997122186, 0.2623696281259789, 0.7921133740155505, 128011000000, 
0.4823678094186328, 0.2667790743589542, 0.796705792651302, 128045000000, 
0.4866790145627416, 0.2712084025824401, 0.8011670054029376, 128079000000, 
0.4909125199898736, 0.2755968870322578, 0.8055599703884018, 128113000000, 
0.49512707112616744, 0.280003448572477, 0.8098345804845989, 128147000000, 
0.49926573340531544, 0.2843677340361132, 0.8140465586345883, 128181000000, 
0.5033857244405218, 0.28874864625153623, 0.8181411451193125, 128215000000, 
0.5074320236381965, 0.29308623531472117, 0.8221759222878321, 128249000000, 
0.5114603381499112, 0.2974393798955874, 0.8261007550999694, 128283000000, 
0.5154167452660471, 0.30174865462787953, 0.8299698138589766, 128317000000, 
0.5193037061975441, 0.3060142656803478, 0.8336453032820093, 128351000000, 
0.5231748541813179, 0.3102938455327112, 0.8371977771636198, 128385000000, 
0.527030846382267, 0.3145873122788767, 0.8408604243046993, 128419000000, 
0.5308196412770874, 0.3188372207273813, 0.8444823085450961, 128453000000, 
0.5345939662594381, 0.3231011072269062, 0.8478875555655573, 128487000000, 
0.5383033100133766, 0.3273202361233487, 0.8512590881699738, 128521000000, 
0.5419988536644188, 0.33155218009646376, 0.8545935228688923, 128555000000, 
0.545630896929447, 0.3357392648315339, 0.8578561219644677, 128589000000, 
0.5492498899121493, 0.33993838057127396, 0.8610035607507229, 128623000000, 
0.5528069587565507, 0.3440918441215536, 0.8641216178387826, 128657000000, 
0.5563511632632052, 0.34825626577278207, 0.867162221988188, 128691000000, 
0.5598347707341059, 0.3523745095282383, 0.8701465757080377, 128725000000, 
0.5633061661856897, 0.35650276964653155, 0.8730465418674201, 128759000000, 
0.5667181898938256, 0.36058438988284386, 0.8759111697299796, 128793000000, 
0.5701184320420122, 0.3646752735663617, 0.87869495372439, 128827000000, 
0.573460964819132, 0.36871942612266834, 0.8814355626297068, 128861000000, 
0.5767923482449894, 0.3727723280176037, 0.8841016482983997, 128895000000, 
0.5800675202464828, 0.37677857657766073, 0.8867304057302106, 128929000000, 
0.5833324496679654, 0.38079332895552503, 0.8892847484105887, 128963000000, 
0.5865429228349991, 0.3847617030924919, 0.8918007274622514, 128997000000, 
0.5897436598908568, 0.38873821089427607, 0.8942466456310267, 129031000000, 
0.5928915156331065, 0.3926685637686737, 0.896655987832315, 129065000000, 
0.5960303617690811, 0.39660671710980794, 0.898998068374466, 129099000000, 
0.5991176886752188, 0.4004987976389426, 0.9013045082613699, 129133000000, 
0.6021963955784203, 0.4043981558237043, 0.9035470910431995, 129167000000, 
0.6052247853930874, 0.40825137398887085, 0.9057567862935524, 129201000000, 
0.6082447646485075, 0.4121112379734544, 0.9079050593641202, 129235000000, 
0.6112156185526919, 0.4159248895534668, 0.91002155469335, 129269000000, 
0.6141783398733297, 0.4197445837774224, 0.9120793578234461, 129303000000, 
0.6170927815540791, 0.42351796946366776, 0.9141072192233006, 129337000000, 
0.6199997085602911, 0.42729703456361806, 0.9160786413261774, 129371000000, 
0.6228592975010236, 0.431029840018798, 0.9180211911430791, 129405000000, 
0.6257116252586413, 0.4347679270121302, 0.9199101865369784, 129439000000, 
0.6285181239878377, 0.43846019224961197, 0.9217714286265555, 129473000000, 
0.6313176521594962, 0.442157455908662, 0.9235809407513265, 129507000000, 
0.6340725647120443, 0.445809308341657, 0.925363727533349, 129541000000, 
0.6368210377398497, 0.4494660221966758, 0.9270968309618244, 129575000000, 
0.6395258210291596, 0.45307761710089334, 0.9288041432269043, 129609000000, 
0.6422248471655061, 0.456694029323524, 0.9304639768193456, 129643000000, 
0.6448812549126417, 0.46026565862869373, 0.9320987082710619, 129677000000, 
0.6475320656741571, 0.46384174641332326, 0.9336883883451138, 129711000000, 
0.6501411988700492, 0.4673732871971284, 0.9352544857091986, 129745000000, 
0.652745055818909, 0.47090899837774297, 0.9367770220226395, 129779000000, 
0.6553080428208125, 0.4744003271089225, 0.9382769863809435, 129813000000, 
0.6578659669813154, 0.47789546587508414, 0.9397354519769614, 129847000000, 
0.6603838297917499, 0.4813464090030122, 0.941172396185496, 129881000000, 
0.66289677379461, 0.48480081866185787, 0.9425696486279872, 129915000000, 
0.6653705700395288, 0.48821134709508923, 0.9439460327440845, 129949000000, 
0.6678395402207346, 0.49162501588994373, 0.9452846099271504, 129983000000, 
0.6702703826099863, 0.4949952789168865, 0.9466034479456269, 130017000000, 
0.6726966346083497, 0.49836850562532525, 0.9478854909507527, 130051000000, 
0.6750856097088019, 0.5016987491104918, 0.9491487319718374, 130085000000, 
0.6774702982556386, 0.5050318677877667, 0.9503769438302672, 130119000000, 
0.6798186094611678, 0.5083225037337488, 0.9515868751555141, 130153000000, 
0.6821629320702469, 0.5116159321792453, 0.9527631331574551, 130187000000, 
0.684471610601706, 0.514867252090568, 0.9539218671033564, 130221000000, 
0.6867765599794813, 0.5181212431733933, 0.9550485632282966, 130255000000, 
0.6890466298529719, 0.5213335274746768, 0.9561584452980174, 130289000000, 
0.6913131475605426, 0.5245482941887966, 0.9572376291717244, 130323000000, 
0.6935454248930564, 0.5277216514622792, 0.958300794580684, 130357000000, 
0.6957743777939911, 0.5308973402382963, 0.9593343912777358, 130391000000, 
0.6979695776079621, 0.5340318169025792, 0.9603528448551347, 130425000000, 
0.7001616612912983, 0.5371684828641421, 0.9613431093482766, 130459000000, 
0.7023206965123769, 0.5402643297837227, 0.9623186086839777, 130493000000, 
0.704476627413392, 0.5433620998518767, 0.9632672855930138, 130527000000, 
0.7066002452084439, 0.5464195246582974, 0.9642018086755892, 130561000000, 
0.7087208915295138, 0.549478735214895, 0.9651105260496264, 130595000000, 
0.7108099003803073, 0.5524980602912583, 0.9660057019990663, 130629000000, 
0.712896155979188, 0.555519135310258, 0.9668762401509953, 130663000000, 
0.714951356575255, 0.5585007325627693, 0.9677337226303582, 130697000000, 
0.7170040655468458, 0.5614840977712712, 0.9685674718949314, 130731000000, 
0.7190262789098582, 0.5644283925070042, 0.9693889002571231, 130765000000, 
0.7210462336077261, 0.5673744573391934, 0.9701874949503209, 130799000000, 
0.7230362736463836, 0.5702818652441777, 0.9709741422032413, 130833000000, 
0.7250241145605353, 0.5731908842612207, 0.9717391023649643, 130867000000, 
0.7269826191066243, 0.5760616568670057, 0.9724926257762342, 130901000000, 
0.7289390434602048, 0.5789339349235677, 0.9732253615751573, 130935000000, 
0.7308666036829111, 0.5817682988533859, 0.9739471783771317, 130969000000, 
0.7327921544106574, 0.5846040278602059, 0.9746490386342166, 131003000000, 
0.7346894401310734, 0.5874023098052626, 0.9753404706619517, 131037000000, 
0.7365847092360507, 0.5902017536783004, 0.9760127807382066, 131071000000, 
0.7384522685460057, 0.592964202719851, 0.9766751377772603, 131105000000, 
0.7403179128486513, 0.5957277312209351, 0.9773191597835188, 131139000000, 
0.7421562608825399, 0.598454602157699, 0.9779536830164234, 131173000000, 
0.7439929756414057, 0.601182679537871, 0.978570566010556, 131207000000, 
0.7458028193696699, 0.6038744541917721, 0.9791783251588402, 131241000000, 
0.7476111422222295, 0.6065674040900692, 0.9797692654612422, 131275000000, 
0.7493931044805788, 0.609224511570421, 0.9803514599039078, 131309000000, 
0.7511736448709176, 0.6118827490123484, 0.980917483445481, 131343000000, 
0.7529283726584303, 0.6145056530234667, 0.9814751145858818, 131377000000, 
0.754681647150266, 0.6171295125387076, 0.9820173457418309, 131411000000, 
0.7564095584118286, 0.6197184373529457, 0.9825514962031602, 131445000000, 
0.7581361966824659, 0.6223083779163792, 0.9830708764084938, 131479000000, 
0.7598378336275738, 0.6248637070683238, 0.9835825115132814, 131513000000, 
0.7615382634197654, 0.627419974915, 0.984080010842968, 131547000000, 
0.7632141232657902, 0.6299420430149644, 0.9845701737860866, 131581000000, 
0.7648888028753643, 0.632464946812223, 0.985046704283899, 131615000000, 
0.7665393266580431, 0.6349540389954921, 0.9855161878296331, 131649000000, 
0.7681887097771074, 0.6374439019302399, 0.985972734994751, 131683000000, 
0.7698143868838051, 0.6399003985380839, 0.986422450681435, 131717000000, 
0.7714389023146667, 0.6423575267660587, 0.9868597432652239, 131751000000, 
0.7730402222927959, 0.6447818254362081, 0.9872905520115991, 131785000000, 
0.7746404017551196, 0.6472066743541781, 0.9877094537457727, 131819000000, 
0.7762177899582816, 0.6495991171167849, 0.9881220989607973, 131853000000, 
0.7777941345934829, 0.6519921239243788, 0.9885233588387284, 131887000000, 
0.7793480335000732, 0.6543530871460637, 0.9889186389714609, 131921000000, 
0.7809009912247612, 0.6567146380747912, 0.9893030015185793, 131955000000, 
0.7824318444631343, 0.6590445217539974, 0.9896816264744716, 131989000000, 
0.7839618861233493, 0.6613750420152035, 0.9900497640173526, 132023000000, 
0.7854700960676778, 0.6636741724185075, 0.9904124478454864, 132057000000, 
0.7869775528564293, 0.6659739158927551, 0.9907650902624043, 132091000000, 
0.78846355011078, 0.6682426807572216, 0.991112522842065, 132125000000, 
0.7899487766582591, 0.6705119472345245, 0.9914503001325832, 132159000000, 
0.7914128924627788, 0.6727506206316376, 0.9917830871055405, 132193000000, 
0.7928763014655903, 0.6749897929984644, 0.9921066661015467, 132227000000, 
0.7943189124280982, 0.6771987204570953, 0.9924254382380567, 132261000000, 
0.7957608772384733, 0.6794081464146418, 0.9927353846805217, 132295000000, 
0.797182365015531, 0.6815876926551152, 0.9930407487125658, 132329000000, 
0.7986032487504658, 0.6837677187701764, 0.9933376503665029, 132363000000, 
0.8000040012747488, 0.6859182711383233, 0.9936301598854774, 132397000000, 
0.8014041730245146, 0.6880692639528536, 0.9939145557436218, 132431000000, 
0.8027845735611773, 0.6901912140335617, 0.9941947402899435, 132465000000, 
0.8041643876114258, 0.6923135311290758, 0.9944671844760453, 132499000000, 
0.805524783836925, 0.6944072336314575, 0.9947355720721385, 132533000000, 
0.8068846047705676, 0.6965012534556712, 0.9949965357287305, 132567000000, 
0.808225328186383, 0.6985670470872025, 0.9952536189415617, 132601000000, 
0.8095654904637538, 0.7006331184218453, 0.9955036107133098, 132635000000, 
0.8108868659612973, 0.7026713344374602, 0.9957498636524474, 132669000000, 
0.8122076832341737, 0.7047097836383386, 0.9959893303769308, 132703000000, 
0.8135100081744524, 0.7067207190379273, 0.9962252271614163, 132737000000, 
0.8148118246387711, 0.7087319120220809, 0.99645461799309, 132771000000, 
0.8160953847104433, 0.7107158781753627, 0.9966805697893758, 132805000000, 
0.8173784655669059, 0.7127000834812232, 0.9969002961462654, 132839000000, 
0.8186435889682473, 0.7146574481626093, 0.9971167557395012, 132873000000, 
0.8199082734922849, 0.7166150522815157, 0.9973272291176305, 132907000000, 
0.8211552486743113, 0.7185461319930797, 0.9975345664960915, 132941000000, 
0.8224018120746209, 0.7204774318780547, 0.997736183403986, 132975000000, 
0.8236309464150812, 0.7223825811486898, 0.9979348013332147, 133009000000, 
0.8248596638818068, 0.7242878908022178, 0.9981279275494805, 133043000000, 
0.826071254321822, 0.7261674407541053, 0.998318173755022, 133077000000, 
0.8272824334005164, 0.7280471337033102, 0.998503177377019, 133111000000, 
0.8284767525396969, 0.7299013882947061, 0.9986854151153199, 133145000000, 
0.8296706821471345, 0.7317557943455942, 0.9988626360942936, 133179000000, 
0.8308480147898571, 0.7335851033538437, 0.9990372038938787, 133213000000, 
0.8320250006316242, 0.7354145905339383, 0.999206959998423, 133247000000, 
0.8331855978236814, 0.7372192562464336, 0.9993741789339381, 133281000000, 
0.834345870470449, 0.7390240890763133, 0.9995367890238502, 133315000000, 
0.8354900284703398, 0.7408044649630094, 0.9996969618301482, 133349000000, 
0.8366338619203101, 0.7425849740539298, 0.9998527292146651, 133383000000, 
0.8377617850523452, 0.7443412950289188, 1.0000061686182902, 133417000000, 
0.8388894246728578, 0.7460977811773941, 1.0001553726104992, 133451000000, 
0.8400013611048687, 0.7478303575304635, 1.0003023500454233, 133485000000, 
0.8411130643325888, 0.7495631318922191, 1.0004452710791718, 133519000000, 
0.8422092780824046, 0.7512723039145367, 1.0005860634857873, 133553000000, 
0.8433052834892418, 0.7529816505566517, 1.0007229645392954, 133587000000, 
0.8443860396839187, 0.7546677419196679, 1.0008578281239902, 133621000000, 
0.845466570397696, 0.7563539551045162, 1.000988968060322, 133655000000, 
0.8465320831611367, 0.7580172339961937, 1.0011181511412115, 133689000000, 
0.847597425838849, 0.7596806934190937, 1.0012437697617103, 133723000000, 
0.8486479777473454, 0.7613215023025047, 1.0013675137158307, 133757000000, 
0.8496983110203826, 0.7629624356594894, 1.0014878416162767, 133791000000, 
0.8507340676213212, 0.7645810023089917, 1.001606376898182, 133825000000, 
0.851769646453869, 0.7661997203696461, 1.001721645098856, 133859000000, 
0.8527908394062252, 0.7677963590858778, 1.0018351922934532, 133893000000, 
0.853811881320174, 0.7693931318269466, 1.0019456055926323, 133927000000, 
0.8548187443167407, 0.7709681388400323, 1.0020543750118336, 133961000000, 
0.8558254778519299, 0.772543295591176, 1.002160146012605, 133995000000, 
0.8568182445980677, 0.7740969553964371, 1.0022643314967363, 134029000000, 
0.8578108606514947, 0.7756507501572603, 1.0023656506424283, 134063000000, 
0.8587897240426516, 0.7771833372762202, 1.0024654577243517, 134097000000, 
0.8597684441710605, 0.7787160524253579, 1.0025625139738386, 134131000000, 
0.8607336198410265, 0.7802278581391269, 1.0026581204297578, 134165000000, 
0.8616986500050301, 0.7817397676476536, 1.0027510916597233, 134199000000, 
0.8626503446768028, 0.7832310661665566, 1.0028426753528794, 134233000000, 
0.8636018808787691, 0.784722439450957, 1.0029317345680842, 134267000000, 
